**** COMMENT ****

**** INPUTS ****
kVp [kV] hvMIN [keV] Dhv [keV]
80  8  1
Angle [deg.]
12
t_AIR t_BE t_AL t_CU t_SN t_W t_Ta t_Ti t_C t_Wa [mm]
0  0  0  0  0  0  0  0  0  0
Nf P
0.68  0.33
****CALCULATED OUTPUTS ****
Brem[uGy/mAs@1m] Char[uGy/mAs@1m]
988.9357  0.7863688
HVL1[cm AL] HVL2[cm AL] HVL1[cmCu] HVL2[cmCu] MeanE[keV] EffEAl[keV] EffECu[keV]
0.0131383  0.0276203  0.0007908  0.0014854  28.37618  11.0578  6.450947
**** CALCULATED SPECTRUM ****
Energy[keV]  N[keV cm^2 mAs]^-1 @ 1 meter
8  1.722932e+7
9  1.891088e+7
10  1.989431e+7
11  1.009817e+7
12  8.246085e+6
13  7.774301e+6
14  8.226807e+6
15  8.583294e+6
16  8.931067e+6
17  9.157731e+6
18  9.285187e+6
19  9.341164e+6
20  9.331337e+6
21  9.264880e+6
22  9.145357e+6
23  8.978930e+6
24  8.777193e+6
25  8.551821e+6
26  8.312148e+6
27  8.054193e+6
28  7.788727e+6
29  7.522702e+6
30  7.250699e+6
31  6.985166e+6
32  6.717245e+6
33  6.455743e+6
34  6.206636e+6
35  5.958037e+6
36  5.712484e+6
37  5.481613e+6
38  5.255290e+6
39  5.037033e+6
40  4.823491e+6
41  4.622479e+6
42  4.427519e+6
43  4.238102e+6
44  4.056313e+6
45  3.881733e+6
46  3.712212e+6
47  3.549731e+6
48  3.392223e+6
49  3.242022e+6
50  3.096965e+6
51  2.956144e+6
52  2.820609e+6
53  2.690517e+6
54  2.563363e+6
55  2.441497e+6
56  2.322908e+6
57  2.208561e+6
58  2.876416e+6
59  3.340932e+6
60  1.885877e+6
61  1.785035e+6
62  1.685839e+6
63  1.589852e+6
64  1.496057e+6
65  1.404841e+6
66  1.315912e+6
67  1.661477e+6
68  1.141914e+6
69  1.170379e+6
70  926219.5
71  851268.6
72  776099.6
73  700533.3
74  624859.9
75  548021.1
76  464933.1
77  382217.4
78  299348.6
79  165403
80  0
