**** COMMENT ****

**** INPUTS ****
kVp [kV] hvMIN [keV] Dhv [keV]
80  8  0.1
Angle [deg.]
12
t_AIR t_BE t_AL t_CU t_SN t_W t_Ta t_Ti t_C t_Wa [mm]
1000  0  0.5  0  0  0  0  0  0  0
Nf P
0.68  0.33
****CALCULATED OUTPUTS ****
Brem[uGy/mAs@1m] Char[uGy/mAs@1m]
193.3832  0.7405868
HVL1[cm AL] HVL2[cm AL] HVL1[cmCu] HVL2[cmCu] MeanE[keV] EffEAl[keV] EffECu[keV]
0.105269  0.2045517  0.0033283  0.0067757  36.6808  22.58478  22.919
**** CALCULATED SPECTRUM ****
Energy[keV]  N[keV cm^2 mAs]^-1 @ 1 meter
8  5863.32
8.1  7453.481
8.2  9466.949
8.3  12032.33
8.4  15303.24
8.5  19476.75
8.6  24805.88
8.7  31615.8
8.8  40324.75
8.9  51471.18
9  65748.99
9.1  76685.61
9.2  89479.11
9.3  104451.3
9.4  121980.7
9.5  142442.6
9.6  166715.8
9.7  194928.9
9.8  228017.2
9.9  266841.1
10  312416.2
10.1  318840.7
10.2  326552.8
10.3  335553.4
10.4  345857.3
10.5  357491.9
10.6  370496.5
10.7  384922.1
10.8  400831
10.9  418296.5
11  437403.4
11.1  459703.6
11.2  483807.4
11.3  508789.1
11.4  535157.3
11.5  562992
11.6  592377.9
11.7  623404.6
11.8  656167.3
11.9  690766.7
12  727309.5
12.1  760129
12.2  794518.7
12.3  830556.4
12.4  868324.1
12.5  907907.6
12.6  949397.5
12.7  992624.3
12.8  1.038235e+6
12.9  1.086685e+6
13  1.136751e+6
13.1  1.185065e+6
13.2  1.235780e+6
13.3  1.289034e+6
13.4  1.344971e+6
13.5  1.403747e+6
13.6  1.465528e+6
13.7  1.530489e+6
13.8  1.598821e+6
13.9  1.670724e+6
14  1.746413e+6
14.1  1.802060e+6
14.2  1.859358e+6
14.3  1.919491e+6
14.4  1.983271e+6
14.5  2.048130e+6
14.6  2.115585e+6
14.7  2.185759e+6
14.8  2.258779e+6
14.9  2.334781e+6
15  2.413907e+6
15.1  2.474456e+6
15.2  2.537000e+6
15.3  2.601616e+6
15.4  2.668385e+6
15.5  2.737394e+6
15.6  2.808731e+6
15.7  2.882491e+6
15.8  2.958770e+6
15.9  3.036906e+6
16  3.118601e+6
16.1  3.179304e+6
16.2  3.239627e+6
16.3  3.301564e+6
16.4  3.365164e+6
16.5  3.430482e+6
16.6  3.497570e+6
16.7  3.566486e+6
16.8  3.637288e+6
16.9  3.710038e+6
17  3.784799e+6
17.1  3.838699e+6
17.2  3.893797e+6
17.3  3.950124e+6
17.4  4.007711e+6
17.5  4.065583e+6
17.6  4.125883e+6
17.7  4.189652e+6
17.8  4.252315e+6
17.9  4.316398e+6
18  4.381939e+6
18.1  4.429668e+6
18.2  4.478320e+6
18.3  4.527914e+6
18.4  4.578471e+6
18.5  4.630009e+6
18.6  4.682549e+6
18.7  4.736112e+6
18.8  4.790720e+6
18.9  4.846395e+6
19  4.903160e+6
19.1  4.942484e+6
19.2  4.986771e+6
19.3  5.028340e+6
19.4  5.070627e+6
19.5  5.113645e+6
19.6  5.157404e+6
19.7  5.201917e+6
19.8  5.247196e+6
19.9  5.293255e+6
20  5.340107e+6
20.1  5.372545e+6
20.2  5.405509e+6
20.3  5.439006e+6
20.4  5.473041e+6
20.5  5.507623e+6
20.6  5.542756e+6
20.7  5.577109e+6
20.8  5.613505e+6
20.9  5.653121e+6
21  5.690098e+6
21.1  5.714549e+6
21.2  5.739399e+6
21.3  5.764651e+6
21.4  5.790307e+6
21.5  5.816372e+6
21.6  5.842849e+6
21.7  5.869740e+6
21.8  5.897050e+6
21.9  5.924783e+6
22  5.952942e+6
22.1  5.969984e+6
22.2  5.985758e+6
22.3  6.003562e+6
22.4  6.021676e+6
22.5  6.042828e+6
22.6  6.060921e+6
22.7  6.079323e+6
22.8  6.098035e+6
22.9  6.117058e+6
23  6.136393e+6
23.1  6.146593e+6
23.2  6.157038e+6
23.3  6.167726e+6
23.4  6.178659e+6
23.5  6.189836e+6
23.6  6.201258e+6
23.7  6.212924e+6
23.8  6.224834e+6
23.9  6.235532e+6
24  6.248089e+6
24.1  6.254742e+6
24.2  6.258190e+6
24.3  6.261840e+6
24.4  6.265690e+6
24.5  6.269741e+6
24.6  6.273990e+6
24.7  6.278438e+6
24.8  6.283084e+6
24.9  6.287927e+6
25  6.292966e+6
25.1  6.293000e+6
25.2  6.293214e+6
25.3  6.293606e+6
25.4  6.294174e+6
25.5  6.293466e+6
25.6  6.294544e+6
25.7  6.298486e+6
25.8  6.299245e+6
25.9  6.300176e+6
26  6.301279e+6
26.1  6.296598e+6
26.2  6.292079e+6
26.3  6.287723e+6
26.4  6.283526e+6
26.5  6.279488e+6
26.6  6.275608e+6
26.7  6.271884e+6
26.8  6.268315e+6
26.9  6.264900e+6
27  6.261637e+6
27.1  6.252532e+6
27.2  6.248441e+6
27.3  6.240544e+6
27.4  6.232798e+6
27.5  6.225200e+6
27.6  6.217751e+6
27.7  6.210447e+6
27.8  6.203289e+6
27.9  6.196274e+6
28  6.189400e+6
28.1  6.178906e+6
28.2  6.168557e+6
28.3  6.158353e+6
28.4  6.148292e+6
28.5  6.138373e+6
28.6  6.128593e+6
28.7  6.117562e+6
28.8  6.111355e+6
28.9  6.101488e+6
29  6.091758e+6
29.1  6.078444e+6
29.2  6.065275e+6
29.3  6.052249e+6
29.4  6.039364e+6
29.5  6.026618e+6
29.6  6.014011e+6
29.7  6.001541e+6
29.8  5.989206e+6
29.9  5.977005e+6
30  5.964936e+6
30.1  5.950831e+6
30.2  5.936863e+6
30.3  5.921689e+6
30.4  5.908142e+6
30.5  5.897067e+6
30.6  5.883123e+6
30.7  5.869312e+6
30.8  5.855632e+6
30.9  5.842082e+6
31  5.828661e+6
31.1  5.812801e+6
31.2  5.797078e+6
31.3  5.781490e+6
31.4  5.766036e+6
31.5  5.750714e+6
31.6  5.735523e+6
31.7  5.720462e+6
31.8  5.704103e+6
31.9  5.689441e+6
32  5.677743e+6
32.1  5.661174e+6
32.2  5.644739e+6
32.3  5.628435e+6
32.4  5.612263e+6
32.5  5.596220e+6
32.6  5.580305e+6
32.7  5.564517e+6
32.8  5.548854e+6
32.9  5.533315e+6
33  5.517899e+6
33.1  5.501298e+6
33.2  5.484825e+6
33.3  5.468478e+6
33.4  5.452255e+6
33.5  5.434935e+6
33.6  5.419095e+6
33.7  5.405476e+6
33.8  5.389300e+6
33.9  5.373244e+6
34  5.357309e+6
34.1  5.339748e+6
34.2  5.322315e+6
34.3  5.305009e+6
34.4  5.287828e+6
34.5  5.270771e+6
34.6  5.253836e+6
34.7  5.237023e+6
34.8  5.220331e+6
34.9  5.203757e+6
35  5.187301e+6
35.1  5.168312e+6
35.2  5.150742e+6
35.3  5.135257e+6
35.4  5.117372e+6
35.5  5.099611e+6
35.6  5.081973e+6
35.7  5.064457e+6
35.8  5.047062e+6
35.9  5.029787e+6
36  5.012630e+6
36.1  4.995186e+6
36.2  4.977860e+6
36.3  4.960652e+6
36.4  4.943561e+6
36.5  4.926585e+6
36.6  4.908492e+6
36.7  4.891868e+6
36.8  4.877738e+6
36.9  4.860788e+6
37  4.843950e+6
37.1  4.826346e+6
37.2  4.808859e+6
37.3  4.791488e+6
37.4  4.774231e+6
37.5  4.757088e+6
37.6  4.740058e+6
37.7  4.723139e+6
37.8  4.706330e+6
37.9  4.689631e+6
38  4.673040e+6
38.1  4.655759e+6
38.2  4.638590e+6
38.3  4.620477e+6
38.4  4.603649e+6
38.5  4.588638e+6
38.6  4.571487e+6
38.7  4.554446e+6
38.8  4.537514e+6
38.9  4.520690e+6
39  4.503974e+6
39.1  4.486778e+6
39.2  4.469692e+6
39.3  4.452715e+6
39.4  4.435845e+6
39.5  4.419082e+6
39.6  4.402425e+6
39.7  4.385872e+6
39.8  4.368307e+6
39.9  4.352075e+6
40  4.335943e+6
40.1  4.321200e+6
40.2  4.304442e+6
40.3  4.287789e+6
40.4  4.271239e+6
40.5  4.254792e+6
40.6  4.238446e+6
40.7  4.222201e+6
40.8  4.206056e+6
40.9  4.190010e+6
41  4.174062e+6
41.1  4.157701e+6
41.2  4.141441e+6
41.3  4.125281e+6
41.4  4.109219e+6
41.5  4.092299e+6
41.6  4.076540e+6
41.7  4.062384e+6
41.8  4.046322e+6
41.9  4.030358e+6
42  4.014490e+6
42.1  3.998365e+6
42.2  3.982337e+6
42.3  3.966407e+6
42.4  3.950572e+6
42.5  3.934833e+6
42.6  3.919188e+6
42.7  3.903637e+6
42.8  3.888179e+6
42.9  3.872812e+6
43  3.857537e+6
43.1  3.841179e+6
43.2  3.825930e+6
43.3  3.812189e+6
43.4  3.796644e+6
43.5  3.781191e+6
43.6  3.765830e+6
43.7  3.750559e+6
43.8  3.735379e+6
43.9  3.720288e+6
44  3.705285e+6
44.1  3.690039e+6
44.2  3.674884e+6
44.3  3.659818e+6
44.4  3.644840e+6
44.5  3.629950e+6
44.6  3.614175e+6
44.7  3.599557e+6
44.8  3.585024e+6
44.9  3.571923e+6
45  3.557114e+6
45.1  3.542193e+6
45.2  3.527360e+6
45.3  3.512613e+6
45.4  3.497951e+6
45.5  3.483374e+6
45.6  3.468882e+6
45.7  3.454472e+6
45.8  3.440146e+6
45.9  3.425902e+6
46  3.411739e+6
46.1  3.397471e+6
46.2  3.382352e+6
46.3  3.368342e+6
46.4  3.354412e+6
46.5  3.341812e+6
46.6  3.327584e+6
46.7  3.313438e+6
46.8  3.299373e+6
46.9  3.285388e+6
47  3.271482e+6
47.1  3.257430e+6
47.2  3.243460e+6
47.3  3.229568e+6
47.4  3.215755e+6
47.5  3.202021e+6
47.6  3.188364e+6
47.7  3.174784e+6
47.8  3.160389e+6
47.9  3.147052e+6
48  3.133790e+6
48.1  3.121748e+6
48.2  3.108164e+6
48.3  3.094656e+6
48.4  3.081223e+6
48.5  3.067866e+6
48.6  3.054584e+6
48.7  3.041375e+6
48.8  3.028240e+6
48.9  3.015177e+6
49  3.002187e+6
49.1  2.989101e+6
49.2  2.976088e+6
49.3  2.963147e+6
49.4  2.950277e+6
49.5  2.936705e+6
49.6  2.924065e+6
49.7  2.912590e+6
49.8  2.899634e+6
49.9  2.886750e+6
50  2.873937e+6
50.1  2.861101e+6
50.2  2.848335e+6
50.3  2.835640e+6
50.4  2.823015e+6
50.5  2.810459e+6
50.6  2.797972e+6
50.7  2.785552e+6
50.8  2.773201e+6
50.9  2.760916e+6
51  2.748699e+6
51.1  2.735680e+6
51.2  2.723558e+6
51.3  2.712576e+6
51.4  2.700179e+6
51.5  2.687851e+6
51.6  2.675590e+6
51.7  2.663395e+6
51.8  2.651266e+6
51.9  2.639203e+6
52  2.627205e+6
52.1  2.615223e+6
52.2  2.603306e+6
52.3  2.591453e+6
52.4  2.579664e+6
52.5  2.567938e+6
52.6  2.556275e+6
52.7  2.543954e+6
52.8  2.532496e+6
52.9  2.522108e+6
53  2.510363e+6
53.1  2.498630e+6
53.2  2.486961e+6
53.3  2.475354e+6
53.4  2.463810e+6
53.5  2.452326e+6
53.6  2.440905e+6
53.7  2.429543e+6
53.8  2.418242e+6
53.9  2.407001e+6
54  2.395820e+6
54.1  2.384614e+6
54.2  2.372692e+6
54.3  2.361684e+6
54.4  2.350735e+6
54.5  2.340807e+6
54.6  2.329576e+6
54.7  2.318405e+6
54.8  2.307292e+6
54.9  2.296239e+6
55  2.285243e+6
55.1  2.274234e+6
55.2  2.263283e+6
55.3  2.252390e+6
55.4  2.241554e+6
55.5  2.230775e+6
55.6  2.220052e+6
55.7  2.209386e+6
55.8  2.198019e+6
55.9  2.187541e+6
56  2.177118e+6
56.1  2.167607e+6
56.2  2.156837e+6
56.3  2.146124e+6
56.4  2.135467e+6
56.5  2.124866e+6
56.6  2.114320e+6
56.7  2.103829e+6
56.8  2.093393e+6
56.9  2.083011e+6
57  2.072683e+6
57.1  2.062384e+6
57.2  2.052138e+6
57.3  2.041945e+6
57.4  2.031805e+6
57.5  2.021056e+6
57.6  2.011095e+6
57.7  2.002051e+6
57.8  1.991788e+6
57.9  1.981579e+6
58  9.284122e+6
58.1  1.961282e+6
58.2  1.951193e+6
58.3  1.941157e+6
58.4  1.931172e+6
58.5  1.921239e+6
58.6  1.911357e+6
58.7  1.901525e+6
58.8  1.891744e+6
58.9  1.882013e+6
59  1.872331e+6
59.1  1.862027e+6
59.2  1.852492e+6
59.3  1.454931e+7
59.4  1.833981e+6
59.5  1.824184e+6
59.6  1.814438e+6
59.7  1.804741e+6
59.8  1.795094e+6
59.9  1.785495e+6
60  1.775946e+6
60.1  1.766394e+6
60.2  1.756892e+6
60.3  1.747437e+6
60.4  1.738031e+6
60.5  1.728673e+6
60.6  1.719362e+6
60.7  1.709464e+6
60.8  1.700319e+6
60.9  1.692008e+6
61  1.682547e+6
61.1  1.673134e+6
61.2  1.663768e+6
61.3  1.654450e+6
61.4  1.645179e+6
61.5  1.635955e+6
61.6  1.626778e+6
61.7  1.617646e+6
61.8  1.608561e+6
61.9  1.599521e+6
62  1.590526e+6
62.1  1.581549e+6
62.2  1.572618e+6
62.3  1.563108e+6
62.4  1.554336e+6
62.5  1.546363e+6
62.6  1.537267e+6
62.7  1.528218e+6
62.8  1.519213e+6
62.9  1.510254e+6
63  1.501340e+6
63.1  1.492473e+6
63.2  1.483650e+6
63.3  1.474871e+6
63.4  1.466136e+6
63.5  1.457444e+6
63.6  1.448795e+6
63.7  1.440190e+6
63.8  1.431627e+6
63.9  1.422491e+6
64  1.414082e+6
64.1  1.406382e+6
64.2  1.397581e+6
64.3  1.388825e+6
64.4  1.380112e+6
64.5  1.371443e+6
64.6  1.362817e+6
64.7  1.354235e+6
64.8  1.345695e+6
64.9  1.337197e+6
65  1.328742e+6
65.1  1.320362e+6
65.2  1.312024e+6
65.3  1.303726e+6
65.4  1.294788e+6
65.5  1.286641e+6
65.6  1.279665e+6
65.7  1.271128e+6
65.8  1.262634e+6
65.9  1.254181e+6
66  1.245770e+6
66.1  1.237360e+6
66.2  1.228992e+6
66.3  1.220664e+6
66.4  1.212379e+6
66.5  1.204133e+6
66.6  1.195929e+6
66.7  1.187765e+6
66.8  1.179641e+6
66.9  1.171557e+6
67  1.163512e+6
67.1  1.154888e+6
67.2  5.251413e+6
67.3  1.139757e+6
67.4  1.131453e+6
67.5  1.123189e+6
67.6  1.114966e+6
67.7  1.106783e+6
67.8  1.098641e+6
67.9  1.090539e+6
68  1.082476e+6
68.1  1.074453e+6
68.2  1.066469e+6
68.3  1.058524e+6
68.4  1.050618e+6
68.5  1.042750e+6
68.6  1.034237e+6
68.7  1.026515e+6
68.8  1.019949e+6
68.9  1.011775e+6
69  1.003640e+6
69.1  2.061026e+6
69.2  987416.8
69.3  979365.5
69.4  971354.1
69.5  963382.5
69.6  907171
69.7  900125.5
69.8  893110.1
69.9  886124.8
70  879169.3
70.1  872201.3
70.2  865263.9
70.3  857784
70.4  850971.4
70.5  844665.2
70.6  837358.2
70.7  830083.4
70.8  822840.7
70.9  815629.7
71  808450.4
71.1  801269.4
71.2  794120.8
71.3  787004.4
71.4  779919.9
71.5  772867.3
71.6  765846.2
71.7  758856.6
71.8  751239.4
71.9  744379
72  738609
72.1  731213.1
72.2  723849.7
72.3  716518.4
72.4  709219.2
72.5  701951.9
72.6  694716.2
72.7  687512
72.8  680339.1
72.9  673197.3
73  666086.5
73.1  658984.3
73.2  651913.5
73.3  644873.9
73.4  637865.4
73.5  630269.5
73.6  623392.3
73.7  616928.9
73.8  609401.1
73.9  601907
74  594446.4
74.1  587016.6
74.2  579620
74.3  572256.4
74.4  564925.8
74.5  557627.8
74.6  550362.3
74.7  543129.1
74.8  535928
74.9  528758.9
75  520843.3
75.1  513805.6
75.2  506799.3
75.3  499735.3
75.4  491476.8
75.5  483256
75.6  475072.5
75.7  466926.3
75.8  458817.1
75.9  450744.7
76  442708.9
76.1  434707.1
76.2  426741.7
76.3  418812.5
76.4  410919.2
76.5  403061.6
76.6  394465.3
76.7  386757.4
76.8  380301.1
76.9  372179
77  364094.6
77.1  356051.8
77.2  348045.9
77.3  340076.8
77.4  332144.3
77.5  324248
77.6  316387.9
77.7  308563.8
77.8  300775.3
77.9  293022.4
78  285304.9
78.1  277616.8
78.2  269964.2
78.3  260856.5
78.4  253442
78.5  239442.8
78.6  222937.2
78.7  206511.1
78.8  190164
78.9  173895.4
79  157704.8
79.1  141592
79.2  125556.3
79.3  109597.5
79.4  93714.98
79.5  77908.42
79.6  62177.38
79.7  46521.43
79.8  30940.16
79.9  15433.15
80  0
